theta        pow          
0.000000e+00 1.000000e+00 
5.729578e-02 9.999802e-01 
1.145916e-01 9.999208e-01 
1.718873e-01 9.998217e-01 
2.291831e-01 9.996830e-01 
2.864789e-01 9.995048e-01 
3.437747e-01 9.992870e-01 
4.010705e-01 9.990296e-01 
4.583662e-01 9.987327e-01 
5.156620e-01 9.983964e-01 
5.729578e-01 9.980206e-01 
6.302536e-01 9.976054e-01 
6.875494e-01 9.971508e-01 
7.448451e-01 9.966569e-01 
8.021409e-01 9.961238e-01 
8.594367e-01 9.955515e-01 
9.167325e-01 9.949400e-01 
9.740283e-01 9.942895e-01 
1.031324e+00 9.936000e-01 
1.088620e+00 9.928716e-01 
1.145916e+00 9.921043e-01 
1.203211e+00 9.912983e-01 
1.260507e+00 9.904537e-01 
1.317803e+00 9.895704e-01 
1.375099e+00 9.886488e-01 
1.432394e+00 9.876887e-01 
1.489690e+00 9.866904e-01 
1.546986e+00 9.856539e-01 
1.604282e+00 9.845795e-01 
1.661578e+00 9.834671e-01 
1.718873e+00 9.823169e-01 
1.776169e+00 9.811290e-01 
1.833465e+00 9.799036e-01 
1.890761e+00 9.786409e-01 
1.948057e+00 9.773408e-01 
2.005352e+00 9.760037e-01 
2.062648e+00 9.746295e-01 
2.119944e+00 9.732186e-01 
2.177240e+00 9.717710e-01 
2.234535e+00 9.702869e-01 
2.291831e+00 9.687665e-01 
2.349127e+00 9.672099e-01 
2.406423e+00 9.656172e-01 
2.463719e+00 9.639888e-01 
2.521014e+00 9.623247e-01 
2.578310e+00 9.606251e-01 
2.635606e+00 9.588903e-01 
2.692902e+00 9.571204e-01 
2.750197e+00 9.553155e-01 
2.807493e+00 9.534760e-01 
2.864789e+00 9.516019e-01 
2.922085e+00 9.496936e-01 
2.979381e+00 9.477512e-01 
3.036676e+00 9.457749e-01 
3.093972e+00 9.437649e-01 
3.151268e+00 9.417214e-01 
3.208564e+00 9.396448e-01 
3.265859e+00 9.375351e-01 
3.323155e+00 9.353926e-01 
3.380451e+00 9.332176e-01 
3.437747e+00 9.310103e-01 
3.495043e+00 9.287709e-01 
3.552338e+00 9.264997e-01 
3.609634e+00 9.241969e-01 
3.666930e+00 9.218627e-01 
3.724226e+00 9.194975e-01 
3.781521e+00 9.171014e-01 
3.838817e+00 9.146747e-01 
3.896113e+00 9.122176e-01 
3.953409e+00 9.097305e-01 
4.010705e+00 9.072136e-01 
4.068000e+00 9.046672e-01 
4.125296e+00 9.020914e-01 
4.182592e+00 8.994867e-01 
4.239888e+00 8.968533e-01 
4.297183e+00 8.941914e-01 
4.354479e+00 8.915013e-01 
4.411775e+00 8.887833e-01 
4.469071e+00 8.860378e-01 
4.526367e+00 8.832649e-01 
4.583662e+00 8.804650e-01 
4.640958e+00 8.776384e-01 
4.698254e+00 8.747853e-01 
4.755550e+00 8.719061e-01 
4.812845e+00 8.690011e-01 
4.870141e+00 8.660705e-01 
4.927437e+00 8.631146e-01 
4.984733e+00 8.601338e-01 
5.042029e+00 8.571284e-01 
5.099324e+00 8.540987e-01 
5.156620e+00 8.510449e-01 
5.213916e+00 8.479675e-01 
5.271212e+00 8.448666e-01 
5.328507e+00 8.417427e-01 
5.385803e+00 8.385961e-01 
5.443099e+00 8.354270e-01 
5.500395e+00 8.322357e-01 
5.557691e+00 8.290227e-01 
5.614986e+00 8.257883e-01 
5.672282e+00 8.225326e-01 
5.729578e+00 8.192562e-01 
5.786874e+00 8.159592e-01 
5.844170e+00 8.126421e-01 
5.901465e+00 8.093052e-01 
5.958761e+00 8.059488e-01 
6.016057e+00 8.025732e-01 
6.073353e+00 7.991787e-01 
6.130648e+00 7.957658e-01 
6.187944e+00 7.923346e-01 
6.245240e+00 7.888857e-01 
6.302536e+00 7.854193e-01 
6.359832e+00 7.819357e-01 
6.417127e+00 7.784352e-01 
6.474423e+00 7.749183e-01 
6.531719e+00 7.713853e-01 
6.589015e+00 7.678365e-01 
6.646310e+00 7.642722e-01 
6.703606e+00 7.606928e-01 
6.760902e+00 7.570986e-01 
6.818198e+00 7.534900e-01 
6.875494e+00 7.498673e-01 
6.932789e+00 7.462308e-01 
6.990085e+00 7.425810e-01 
7.047381e+00 7.389181e-01 
7.104677e+00 7.352425e-01 
7.161972e+00 7.315545e-01 
7.219268e+00 7.278544e-01 
7.276564e+00 7.241427e-01 
7.333860e+00 7.204197e-01 
7.391156e+00 7.166856e-01 
7.448451e+00 7.129409e-01 
7.505747e+00 7.091859e-01 
7.563043e+00 7.054209e-01 
7.620339e+00 7.016463e-01 
7.677634e+00 6.978624e-01 
7.734930e+00 6.940696e-01 
7.792226e+00 6.902681e-01 
7.849522e+00 6.864584e-01 
7.906818e+00 6.826408e-01 
7.964113e+00 6.788156e-01 
8.021409e+00 6.749832e-01 
8.078705e+00 6.711438e-01 
8.136001e+00 6.672979e-01 
8.193296e+00 6.634458e-01 
8.250592e+00 6.595878e-01 
8.307888e+00 6.557242e-01 
8.365184e+00 6.518554e-01 
8.422480e+00 6.479817e-01 
8.479775e+00 6.441034e-01 
8.537071e+00 6.402209e-01 
8.594367e+00 6.363346e-01 
8.651663e+00 6.324446e-01 
8.708958e+00 6.285514e-01 
8.766254e+00 6.246553e-01 
8.823550e+00 6.207567e-01 
8.880846e+00 6.168557e-01 
8.938142e+00 6.129528e-01 
8.995437e+00 6.090483e-01 
9.052733e+00 6.051425e-01 
9.110029e+00 6.012357e-01 
9.167325e+00 5.973283e-01 
9.224621e+00 5.934205e-01 
9.281916e+00 5.895126e-01 
9.339212e+00 5.856051e-01 
9.396508e+00 5.816981e-01 
9.453804e+00 5.777921e-01 
9.511099e+00 5.738872e-01 
9.568395e+00 5.699838e-01 
9.625691e+00 5.660823e-01 
9.682987e+00 5.621828e-01 
9.740283e+00 5.582858e-01 
9.797578e+00 5.543915e-01 
9.854874e+00 5.505002e-01 
9.912170e+00 5.466122e-01 
9.969466e+00 5.427278e-01 
1.002676e+01 5.388473e-01 
1.008406e+01 5.349709e-01 
1.014135e+01 5.310990e-01 
1.019865e+01 5.272319e-01 
1.025594e+01 5.233697e-01 
1.031324e+01 5.195129e-01 
1.037054e+01 5.156616e-01 
1.042783e+01 5.118162e-01 
1.048513e+01 5.079769e-01 
1.054242e+01 5.041440e-01 
1.059972e+01 5.003178e-01 
1.065701e+01 4.964985e-01 
1.071431e+01 4.926864e-01 
1.077161e+01 4.888817e-01 
1.082890e+01 4.850848e-01 
1.088620e+01 4.812958e-01 
1.094349e+01 4.775150e-01 
1.100079e+01 4.737427e-01 
1.105809e+01 4.699791e-01 
1.111538e+01 4.662245e-01 
1.117268e+01 4.624790e-01 
1.122997e+01 4.587430e-01 
1.128727e+01 4.550167e-01 
1.134456e+01 4.513004e-01 
1.140186e+01 4.475941e-01 
1.145916e+01 4.438983e-01 
1.151645e+01 4.402130e-01 
1.157375e+01 4.365386e-01 
1.163104e+01 4.328752e-01 
1.168834e+01 4.292231e-01 
1.174563e+01 4.255825e-01 
1.180293e+01 4.219536e-01 
1.186023e+01 4.183366e-01 
1.191752e+01 4.147317e-01 
1.197482e+01 4.111392e-01 
1.203211e+01 4.075591e-01 
1.208941e+01 4.039918e-01 
1.214671e+01 4.004374e-01 
1.220400e+01 3.968962e-01 
1.226130e+01 3.933682e-01 
1.231859e+01 3.898537e-01 
1.237589e+01 3.863529e-01 
1.243318e+01 3.828659e-01 
1.249048e+01 3.793930e-01 
1.254778e+01 3.759343e-01 
1.260507e+01 3.724900e-01 
1.266237e+01 3.690603e-01 
1.271966e+01 3.656452e-01 
1.277696e+01 3.622451e-01 
1.283425e+01 3.588600e-01 
1.289155e+01 3.554901e-01 
1.294885e+01 3.521355e-01 
1.300614e+01 3.487965e-01 
1.306344e+01 3.454732e-01 
1.312073e+01 3.421656e-01 
1.317803e+01 3.388740e-01 
1.323533e+01 3.355985e-01 
1.329262e+01 3.323392e-01 
1.334992e+01 3.290963e-01 
1.340721e+01 3.258699e-01 
1.346451e+01 3.226602e-01 
1.352180e+01 3.194671e-01 
1.357910e+01 3.162910e-01 
1.363640e+01 3.131318e-01 
1.369369e+01 3.099897e-01 
1.375099e+01 3.068649e-01 
1.380828e+01 3.037574e-01 
1.386558e+01 3.006674e-01 
1.392287e+01 2.975948e-01 
1.398017e+01 2.945400e-01 
1.403747e+01 2.915029e-01 
1.409476e+01 2.884836e-01 
1.415206e+01 2.854823e-01 
1.420935e+01 2.824989e-01 
1.426665e+01 2.795338e-01 
1.432394e+01 2.765868e-01 
1.438124e+01 2.736580e-01 
1.443854e+01 2.707477e-01 
1.449583e+01 2.678558e-01 
1.455313e+01 2.649823e-01 
1.461042e+01 2.621275e-01 
1.466772e+01 2.592913e-01 
1.472502e+01 2.564738e-01 
1.478231e+01 2.536751e-01 
1.483961e+01 2.508952e-01 
1.489690e+01 2.481342e-01 
1.495420e+01 2.453921e-01 
1.501149e+01 2.426690e-01 
1.506879e+01 2.399650e-01 
1.512609e+01 2.372800e-01 
1.518338e+01 2.346142e-01 
1.524068e+01 2.319675e-01 
1.529797e+01 2.293400e-01 
1.535527e+01 2.267318e-01 
1.541256e+01 2.241428e-01 
1.546986e+01 2.215731e-01 
1.552716e+01 2.190227e-01 
1.558445e+01 2.164917e-01 
1.564175e+01 2.139800e-01 
1.569904e+01 2.114877e-01 
1.575634e+01 2.090149e-01 
1.581364e+01 2.065614e-01 
1.587093e+01 2.041273e-01 
1.592823e+01 2.017127e-01 
1.598552e+01 1.993175e-01 
1.604282e+01 1.969418e-01 
1.610011e+01 1.945855e-01 
1.615741e+01 1.922486e-01 
1.621471e+01 1.899312e-01 
1.627200e+01 1.876332e-01 
1.632930e+01 1.853547e-01 
1.638659e+01 1.830955e-01 
1.644389e+01 1.808558e-01 
1.650118e+01 1.786354e-01 
1.655848e+01 1.764344e-01 
1.661578e+01 1.742527e-01 
1.667307e+01 1.720904e-01 
1.673037e+01 1.699473e-01 
1.678766e+01 1.678235e-01 
1.684496e+01 1.657190e-01 
1.690225e+01 1.636337e-01 
1.695955e+01 1.615675e-01 
1.701685e+01 1.595206e-01 
1.707414e+01 1.574927e-01 
1.713144e+01 1.554838e-01 
1.718873e+01 1.534941e-01 
1.724603e+01 1.515233e-01 
1.730333e+01 1.495714e-01 
1.736062e+01 1.476384e-01 
1.741792e+01 1.457243e-01 
1.747521e+01 1.438290e-01 
1.753251e+01 1.419524e-01 
1.758980e+01 1.400945e-01 
1.764710e+01 1.382552e-01 
1.770440e+01 1.364345e-01 
1.776169e+01 1.346323e-01 
1.781899e+01 1.328485e-01 
1.787628e+01 1.310832e-01 
1.793358e+01 1.293362e-01 
1.799087e+01 1.276074e-01 
1.804817e+01 1.258968e-01 
1.810547e+01 1.242044e-01 
1.816276e+01 1.225300e-01 
1.822006e+01 1.208735e-01 
1.827735e+01 1.192350e-01 
1.833465e+01 1.176143e-01 
1.839195e+01 1.160113e-01 
1.844924e+01 1.144261e-01 
1.850654e+01 1.128584e-01 
1.856383e+01 1.113082e-01 
1.862113e+01 1.097754e-01 
1.867842e+01 1.082600e-01 
1.873572e+01 1.067619e-01 
1.879302e+01 1.052809e-01 
1.885031e+01 1.038170e-01 
1.890761e+01 1.023701e-01 
1.896490e+01 1.009401e-01 
1.902220e+01 9.952687e-02 
1.907949e+01 9.813040e-02 
1.913679e+01 9.675056e-02 
1.919409e+01 9.538724e-02 
1.925138e+01 9.404037e-02 
1.930868e+01 9.270983e-02 
1.936597e+01 9.139553e-02 
1.942327e+01 9.009737e-02 
1.948057e+01 8.881526e-02 
1.953786e+01 8.754909e-02 
1.959516e+01 8.629876e-02 
1.965245e+01 8.506417e-02 
1.970975e+01 8.384521e-02 
1.976704e+01 8.264178e-02 
1.982434e+01 8.145378e-02 
1.988164e+01 8.028110e-02 
1.993893e+01 7.912363e-02 
1.999623e+01 7.798127e-02 
2.005352e+01 7.685390e-02 
2.011082e+01 7.574143e-02 
2.016811e+01 7.464373e-02 
2.022541e+01 7.356071e-02 
2.028271e+01 7.249225e-02 
2.034000e+01 7.143823e-02 
2.039730e+01 7.039856e-02 
2.045459e+01 6.937311e-02 
2.051189e+01 6.836177e-02 
2.056918e+01 6.736443e-02 
2.062648e+01 6.638099e-02 
2.068378e+01 6.541131e-02 
2.074107e+01 6.445529e-02 
2.079837e+01 6.351282e-02 
2.085566e+01 6.258377e-02 
2.091296e+01 6.166804e-02 
2.097026e+01 6.076551e-02 
2.102755e+01 5.987606e-02 
2.108485e+01 5.899958e-02 
2.114214e+01 5.813594e-02 
2.119944e+01 5.728504e-02 
2.125673e+01 5.644675e-02 
2.131403e+01 5.562096e-02 
2.137133e+01 5.480756e-02 
2.142862e+01 5.400642e-02 
2.148592e+01 5.321742e-02 
2.154321e+01 5.244046e-02 
2.160051e+01 5.167540e-02 
2.165780e+01 5.092214e-02 
2.171510e+01 5.018056e-02 
2.177240e+01 4.945054e-02 
2.182969e+01 4.873195e-02 
2.188699e+01 4.802469e-02 
2.194428e+01 4.732864e-02 
2.200158e+01 4.664367e-02 
2.205888e+01 4.596968e-02 
2.211617e+01 4.530654e-02 
2.217347e+01 4.465413e-02 
2.223076e+01 4.401234e-02 
2.228806e+01 4.338106e-02 
2.234535e+01 4.276016e-02 
2.240265e+01 4.214953e-02 
2.245995e+01 4.154906e-02 
2.251724e+01 4.095862e-02 
2.257454e+01 4.037810e-02 
2.263183e+01 3.980738e-02 
2.268913e+01 3.924636e-02 
2.274642e+01 3.869491e-02 
2.280372e+01 3.815292e-02 
2.286102e+01 3.762028e-02 
2.291831e+01 3.709687e-02 
2.297561e+01 3.658258e-02 
2.303290e+01 3.607729e-02 
2.309020e+01 3.558090e-02 
2.314749e+01 3.509328e-02 
2.320479e+01 3.461434e-02 
2.326209e+01 3.414395e-02 
2.331938e+01 3.368200e-02 
2.337668e+01 3.322839e-02 
2.343397e+01 3.278300e-02 
2.349127e+01 3.234573e-02 
2.354857e+01 3.191647e-02 
2.360586e+01 3.149510e-02 
2.366316e+01 3.108152e-02 
2.372045e+01 3.067561e-02 
2.377775e+01 3.027729e-02 
2.383504e+01 2.988643e-02 
2.389234e+01 2.950293e-02 
2.394964e+01 2.912669e-02 
2.400693e+01 2.875760e-02 
2.406423e+01 2.839555e-02 
2.412152e+01 2.804045e-02 
2.417882e+01 2.769219e-02 
2.423611e+01 2.735067e-02 
2.429341e+01 2.701578e-02 
2.435071e+01 2.668743e-02 
2.440800e+01 2.636551e-02 
2.446530e+01 2.604993e-02 
2.452259e+01 2.574059e-02 
2.457989e+01 2.543738e-02 
2.463719e+01 2.514022e-02 
2.469448e+01 2.484899e-02 
2.475178e+01 2.456362e-02 
2.480907e+01 2.428400e-02 
2.486637e+01 2.401003e-02 
2.492366e+01 2.374163e-02 
2.498096e+01 2.347870e-02 
2.503826e+01 2.322115e-02 
2.509555e+01 2.296888e-02 
2.515285e+01 2.272180e-02 
2.521014e+01 2.247983e-02 
2.526744e+01 2.224288e-02 
2.532473e+01 2.201085e-02 
2.538203e+01 2.178366e-02 
2.543933e+01 2.156122e-02 
2.549662e+01 2.134345e-02 
2.555392e+01 2.113026e-02 
2.561121e+01 2.092156e-02 
2.566851e+01 2.071727e-02 
2.572581e+01 2.051731e-02 
2.578310e+01 2.032159e-02 
2.584040e+01 2.013004e-02 
2.589769e+01 1.994257e-02 
2.595499e+01 1.975911e-02 
2.601228e+01 1.957956e-02 
2.606958e+01 1.940387e-02 
2.612688e+01 1.923194e-02 
2.618417e+01 1.906371e-02 
2.624147e+01 1.889909e-02 
2.629876e+01 1.873801e-02 
2.635606e+01 1.858040e-02 
2.641335e+01 1.842618e-02 
2.647065e+01 1.827529e-02 
2.652795e+01 1.812764e-02 
2.658524e+01 1.798318e-02 
2.664254e+01 1.784182e-02 
2.669983e+01 1.770350e-02 
2.675713e+01 1.756816e-02 
2.681442e+01 1.743572e-02 
2.687172e+01 1.730612e-02 
2.692902e+01 1.717929e-02 
2.698631e+01 1.705517e-02 
2.704361e+01 1.693369e-02 
2.710090e+01 1.681479e-02 
2.715820e+01 1.669841e-02 
2.721550e+01 1.658449e-02 
2.727279e+01 1.647296e-02 
2.733009e+01 1.636377e-02 
2.738738e+01 1.625686e-02 
2.744468e+01 1.615216e-02 
2.750197e+01 1.604963e-02 
2.755927e+01 1.594920e-02 
2.761657e+01 1.585082e-02 
2.767386e+01 1.575444e-02 
2.773116e+01 1.565999e-02 
2.778845e+01 1.556743e-02 
2.784575e+01 1.547671e-02 
2.790304e+01 1.538777e-02 
2.796034e+01 1.530056e-02 
2.801764e+01 1.521503e-02 
2.807493e+01 1.513114e-02 
2.813223e+01 1.504883e-02 
2.818952e+01 1.496805e-02 
2.824682e+01 1.488877e-02 
2.830412e+01 1.481093e-02 
2.836141e+01 1.473449e-02 
2.841871e+01 1.465940e-02 
2.847600e+01 1.458562e-02 
2.853330e+01 1.451311e-02 
2.859059e+01 1.444182e-02 
2.864789e+01 1.437172e-02 
2.870519e+01 1.430276e-02 
2.876248e+01 1.423490e-02 
2.881978e+01 1.416810e-02 
2.887707e+01 1.410233e-02 
2.893437e+01 1.403755e-02 
2.899166e+01 1.397372e-02 
2.904896e+01 1.391080e-02 
2.910626e+01 1.384876e-02 
2.916355e+01 1.378756e-02 
2.922085e+01 1.372717e-02 
2.927814e+01 1.366756e-02 
2.933544e+01 1.360869e-02 
2.939273e+01 1.355053e-02 
2.945003e+01 1.349305e-02 
2.950733e+01 1.343623e-02 
2.956462e+01 1.338002e-02 
2.962192e+01 1.332439e-02 
2.967921e+01 1.326934e-02 
2.973651e+01 1.321481e-02 
2.979381e+01 1.316079e-02 
2.985110e+01 1.310725e-02 
2.990840e+01 1.305416e-02 
2.996569e+01 1.300150e-02 
3.002299e+01 1.294924e-02 
3.008028e+01 1.289736e-02 
3.013758e+01 1.284583e-02 
3.019488e+01 1.279464e-02 
3.025217e+01 1.274375e-02 
3.030947e+01 1.269316e-02 
3.036676e+01 1.264282e-02 
3.042406e+01 1.259274e-02 
3.048135e+01 1.254288e-02 
3.053865e+01 1.249323e-02 
3.059595e+01 1.244376e-02 
3.065324e+01 1.239447e-02 
3.071054e+01 1.234532e-02 
3.076783e+01 1.229631e-02 
3.082513e+01 1.224742e-02 
3.088243e+01 1.219863e-02 
3.093972e+01 1.214992e-02 
3.099702e+01 1.210129e-02 
3.105431e+01 1.205271e-02 
3.111161e+01 1.200417e-02 
3.116890e+01 1.195566e-02 
3.122620e+01 1.190717e-02 
3.128350e+01 1.185867e-02 
3.134079e+01 1.181017e-02 
3.139809e+01 1.176165e-02 
3.145538e+01 1.171309e-02 
3.151268e+01 1.166449e-02 
3.156997e+01 1.161583e-02 
3.162727e+01 1.156711e-02 
3.168457e+01 1.151832e-02 
3.174186e+01 1.146944e-02 
3.179916e+01 1.142047e-02 
3.185645e+01 1.137141e-02 
3.191375e+01 1.132223e-02 
3.197104e+01 1.127295e-02 
3.202834e+01 1.122354e-02 
3.208564e+01 1.117400e-02 
3.214293e+01 1.112433e-02 
3.220023e+01 1.107451e-02 
3.225752e+01 1.102455e-02 
3.231482e+01 1.097444e-02 
3.237212e+01 1.092418e-02 
3.242941e+01 1.087375e-02 
3.248671e+01 1.082316e-02 
3.254400e+01 1.077240e-02 
3.260130e+01 1.072147e-02 
3.265859e+01 1.067037e-02 
3.271589e+01 1.061909e-02 
3.277319e+01 1.056762e-02 
3.283048e+01 1.051598e-02 
3.288778e+01 1.046415e-02 
3.294507e+01 1.041214e-02 
3.300237e+01 1.035994e-02 
3.305966e+01 1.030755e-02 
3.311696e+01 1.025498e-02 
3.317426e+01 1.020221e-02 
3.323155e+01 1.014925e-02 
3.328885e+01 1.009611e-02 
3.334614e+01 1.004278e-02 
3.340344e+01 9.989255e-03 
3.346074e+01 9.935546e-03 
3.351803e+01 9.881650e-03 
3.357533e+01 9.827568e-03 
3.363262e+01 9.773302e-03 
3.368992e+01 9.718854e-03 
3.374721e+01 9.664225e-03 
3.380451e+01 9.609418e-03 
3.386181e+01 9.554434e-03 
3.391910e+01 9.499276e-03 
3.397640e+01 9.443948e-03 
3.403369e+01 9.388450e-03 
3.409099e+01 9.332788e-03 
3.414828e+01 9.276963e-03 
3.420558e+01 9.220979e-03 
3.426288e+01 9.164839e-03 
3.432017e+01 9.108548e-03 
3.437747e+01 9.052109e-03 
3.443476e+01 8.995525e-03 
3.449206e+01 8.938801e-03 
3.454936e+01 8.881941e-03 
3.460665e+01 8.824950e-03 
3.466395e+01 8.767832e-03 
3.472124e+01 8.710591e-03 
3.477854e+01 8.653232e-03 
3.483583e+01 8.595759e-03 
3.489313e+01 8.538179e-03 
3.495043e+01 8.480495e-03 
3.500772e+01 8.422714e-03 
3.506502e+01 8.364839e-03 
3.512231e+01 8.306876e-03 
3.517961e+01 8.248831e-03 
3.523690e+01 8.190710e-03 
3.529420e+01 8.132516e-03 
3.535150e+01 8.074257e-03 
3.540879e+01 8.015938e-03 
3.546609e+01 7.957564e-03 
3.552338e+01 7.899141e-03 
3.558068e+01 7.840676e-03 
3.563797e+01 7.782173e-03 
3.569527e+01 7.723640e-03 
3.575257e+01 7.665081e-03 
3.580986e+01 7.606502e-03 
3.586716e+01 7.547911e-03 
3.592445e+01 7.489313e-03 
3.598175e+01 7.430713e-03 
3.603905e+01 7.372119e-03 
3.609634e+01 7.313536e-03 
3.615364e+01 7.254970e-03 
3.621093e+01 7.196428e-03 
3.626823e+01 7.137916e-03 
3.632552e+01 7.079440e-03 
3.638282e+01 7.021006e-03 
3.644012e+01 6.962620e-03 
3.649741e+01 6.904289e-03 
3.655471e+01 6.846018e-03 
3.661200e+01 6.787815e-03 
3.666930e+01 6.729685e-03 
3.672659e+01 6.671634e-03 
3.678389e+01 6.613668e-03 
3.684119e+01 6.555795e-03 
3.689848e+01 6.498019e-03 
3.695578e+01 6.440347e-03 
3.701307e+01 6.382785e-03 
3.707037e+01 6.325339e-03 
3.712767e+01 6.268015e-03 
3.718496e+01 6.210819e-03 
3.724226e+01 6.153757e-03 
3.729955e+01 6.096835e-03 
3.735685e+01 6.040059e-03 
3.741414e+01 5.983435e-03 
3.747144e+01 5.926968e-03 
3.752874e+01 5.870664e-03 
3.758603e+01 5.814529e-03 
3.764333e+01 5.758569e-03 
3.770062e+01 5.702790e-03 
3.775792e+01 5.647196e-03 
3.781521e+01 5.591793e-03 
3.787251e+01 5.536588e-03 
3.792981e+01 5.481584e-03 
3.798710e+01 5.426789e-03 
3.804440e+01 5.372206e-03 
3.810169e+01 5.317841e-03 
3.815899e+01 5.263700e-03 
3.821628e+01 5.209787e-03 
3.827358e+01 5.156107e-03 
3.833088e+01 5.102666e-03 
3.838817e+01 5.049468e-03 
3.844547e+01 4.996519e-03 
3.850276e+01 4.943822e-03 
3.856006e+01 4.891383e-03 
3.861736e+01 4.839206e-03 
3.867465e+01 4.787297e-03 
3.873195e+01 4.735658e-03 
3.878924e+01 4.684296e-03 
3.884654e+01 4.633213e-03 
3.890383e+01 4.582415e-03 
3.896113e+01 4.531906e-03 
3.901843e+01 4.481689e-03 
3.907572e+01 4.431769e-03 
3.913302e+01 4.382149e-03 
3.919031e+01 4.332834e-03 
3.924761e+01 4.283828e-03 
3.930490e+01 4.235133e-03 
3.936220e+01 4.186754e-03 
3.941950e+01 4.138695e-03 
3.947679e+01 4.090958e-03 
3.953409e+01 4.043547e-03 
3.959138e+01 3.996466e-03 
3.964868e+01 3.949717e-03 
3.970598e+01 3.903304e-03 
3.976327e+01 3.857230e-03 
3.982057e+01 3.811498e-03 
3.987786e+01 3.766111e-03 
3.993516e+01 3.721071e-03 
3.999245e+01 3.676381e-03 
4.004975e+01 3.632044e-03 
4.010705e+01 3.588063e-03 
4.016434e+01 3.544439e-03 
4.022164e+01 3.501176e-03 
4.027893e+01 3.458275e-03 
4.033623e+01 3.415740e-03 
4.039352e+01 3.373571e-03 
4.045082e+01 3.331771e-03 
4.050812e+01 3.290342e-03 
4.056541e+01 3.249286e-03 
4.062271e+01 3.208605e-03 
4.068000e+01 3.168301e-03 
4.073730e+01 3.128374e-03 
4.079460e+01 3.088827e-03 
4.085189e+01 3.049661e-03 
4.090919e+01 3.010877e-03 
4.096648e+01 2.972478e-03 
4.102378e+01 2.934463e-03 
4.108107e+01 2.896834e-03 
4.113837e+01 2.859593e-03 
4.119567e+01 2.822740e-03 
4.125296e+01 2.786276e-03 
4.131026e+01 2.750202e-03 
4.136755e+01 2.714519e-03 
4.142485e+01 2.679228e-03 
4.148214e+01 2.644328e-03 
4.153944e+01 2.609821e-03 
4.159674e+01 2.575707e-03 
4.165403e+01 2.541986e-03 
4.171133e+01 2.508659e-03 
4.176862e+01 2.475725e-03 
4.182592e+01 2.443186e-03 
4.188321e+01 2.411041e-03 
4.194051e+01 2.379290e-03 
4.199781e+01 2.347933e-03 
4.205510e+01 2.316970e-03 
4.211240e+01 2.286401e-03 
4.216969e+01 2.256225e-03 
4.222699e+01 2.226442e-03 
4.228429e+01 2.197052e-03 
